----- Header information -------------------------------------------------------
Current name: TP6_SP_10_XRR_20120213_0_4_001_8s_corr022.txt
Original name: TP6_SP_10_XRR_20120213_0_4_001_8s_corr022
Comment: TP6_SP_10_XRR_20120213_0_4_001_8s.njc (korrigiert mit Strahl = 0.22 mm und Probe = 21.0 mm)
Original date: 16-Feb-2012, 11:10:11
Wavelength: 1.5418
Omega: ???
2Theta: ???
Scan type: ???
Scan axis: ???
First angle: 0.0
Scan range: 4.0
Step width: 0.01
Time per step: 8.0
Number of points: 401
--------------------------------------------------------------------------------

        Angle	    Intensity
          deg	          cps
       0.0000	          inf
       0.0100	10685138.1077
       0.0200	 5948588.8393
       0.0300	 3330574.1154
       0.0400	 1759148.9010
       0.0500	  855424.1651
       0.0600	  514210.9333
       0.0700	  404300.6927
       0.0800	  347270.7443
       0.0900	  325745.0252
       0.1000	  341658.2318
       0.1100	  361895.9724
       0.1200	  371160.6497
       0.1300	  369561.3758
       0.1400	  359245.6988
       0.1500	  344308.5015
       0.1600	  326179.1623
       0.1700	  309058.1998
       0.1800	  292349.7486
       0.1900	  279179.5822
       0.2000	  269095.7633
       0.2100	  260593.1842
       0.2200	  254553.9863
       0.2300	  249781.1463
       0.2400	  245622.2838
       0.2500	  241889.9007
       0.2600	  237604.2684
       0.2700	  234575.4288
       0.2800	  231262.8796
       0.2900	  228151.1644
       0.3000	  223821.3385
       0.3100	  220096.9063
       0.3200	  216625.1967
       0.3300	  213310.9757
       0.3400	  209433.6832
       0.3500	  205898.9645
       0.3600	  202008.1441
       0.3700	  198809.0372
       0.3800	  195578.5740
       0.3900	  192127.3703
       0.4000	  188784.0608
       0.4100	  184338.3780
       0.4200	  180599.0704
       0.4300	  176893.0682
       0.4400	  173216.0436
       0.4500	  168304.3976
       0.4600	  163447.1984
       0.4700	  158048.3103
       0.4800	  152269.5995
       0.4900	  144066.4570
       0.5000	  133430.0196
       0.5100	  119952.9129
       0.5200	  103155.3367
       0.5300	   84637.9632
       0.5400	   68051.9632
       0.5500	   53815.1439
       0.5600	   42935.4127
       0.5700	   35278.1837
       0.5800	   29348.2923
       0.5900	   24986.3689
       0.6000	   21324.7162
       0.6100	   18535.2518
       0.6200	   16142.3206
       0.6300	   14488.2794
       0.6400	   12938.3215
       0.6500	   11302.0913
       0.6600	   10164.9316
       0.6700	    9247.1278
       0.6800	    8399.0642
       0.6900	    7519.7667
       0.7000	    6771.6752
       0.7100	    6296.5583
       0.7200	    5848.0314
       0.7300	    5314.4918
       0.7400	    4899.0463
       0.7500	    4471.8839
       0.7600	    4145.8370
       0.7700	    3907.2740
       0.7800	    3640.6575
       0.7900	    3245.3963
       0.8000	    3065.6309
       0.8100	    2896.6518
       0.8200	    2779.2107
       0.8300	    2513.4646
       0.8400	    2315.2308
       0.8500	    2155.7003
       0.8600	    2027.3779
       0.8700	    1950.6256
       0.8800	    1872.5426
       0.8900	    1742.4606
       0.9000	    1620.3006
       0.9100	    1496.0484
       0.9200	    1420.9356
       0.9300	    1416.8153
       0.9400	    1336.3109
       0.9500	    1205.1206
       0.9600	    1155.6072
       0.9700	    1106.4984
       0.9800	    1034.6183
       0.9900	    1016.4240
       1.0000	     942.9818
       1.0100	     899.4195
       1.0200	     819.1451
       1.0300	     787.1207
       1.0400	     780.5636
       1.0500	     753.6669
       1.0600	     710.5522
       1.0700	     654.2055
       1.0800	     603.2172
       1.0900	     579.3541
       1.1000	     583.3739
       1.1100	     580.2836
       1.1200	     542.1082
       1.1300	     502.8820
       1.1400	     462.5021
       1.1500	     443.7227
       1.1600	     438.7323
       1.1700	     418.9368
       1.1800	     404.3135
       1.1900	     374.7925
       1.2000	     357.0272
       1.2100	     326.4820
       1.2200	     331.7350
       1.2300	     345.1190
       1.2400	     327.4820
       1.2500	     312.2220
       1.2600	     280.5790
       1.2700	     277.4520
       1.2800	     280.7040
       1.2900	     267.5720
       1.3000	     266.8210
       1.3100	     253.0640
       1.3200	     236.1810
       1.3300	     227.1770
       1.3400	     219.0480
       1.3500	     223.1750
       1.3600	     221.1740
       1.3700	     210.1690
       1.3800	     190.0360
       1.3900	     186.6600
       1.4000	     181.9080
       1.4100	     176.4060
       1.4200	     175.5310
       1.4300	     179.5320
       1.4400	     164.7770
       1.4500	     153.7740
       1.4600	     149.7720
       1.4700	     145.5210
       1.4800	     141.7700
       1.4900	     143.5210
       1.5000	     140.7700
       1.5100	     133.6430
       1.5200	     120.6400
       1.5300	     124.2650
       1.5400	     116.1380
       1.5500	     119.7640
       1.5600	     115.0130
       1.5700	     109.2620
       1.5800	     108.0120
       1.5900	     101.1350
       1.6000	     100.3850
       1.6100	      99.3850
       1.6200	     100.2600
       1.6300	      90.1330
       1.6400	      82.7570
       1.6500	      86.6330
       1.6600	      79.7560
       1.6700	      84.1320
       1.6800	      80.0060
       1.6900	      71.1300
       1.7000	      77.2560
       1.7100	      75.7560
       1.7200	      72.7550
       1.7300	      69.0050
       1.7400	      67.3800
       1.7500	      73.2550
       1.7600	      57.5030
       1.7700	      58.1280
       1.7800	      59.5040
       1.7900	      58.7530
       1.8000	      61.1290
       1.8100	      57.7530
       1.8200	      56.0030
       1.8300	      49.3770
       1.8400	      52.3780
       1.8500	      50.5030
       1.8600	      52.1280
       1.8700	      46.3770
       1.8800	      47.0020
       1.8900	      46.3770
       1.9000	      44.1270
       1.9100	      41.5020
       1.9200	      42.6270
       1.9300	      42.7520
       1.9400	      43.6270
       1.9500	      39.7520
       1.9600	      39.0020
       1.9700	      33.6260
       1.9800	      36.3760
       1.9900	      33.3760
       2.0000	      34.8760
       2.0100	      35.7510
       2.0200	      30.1260
       2.0300	      29.6260
       2.0400	      30.1260
       2.0500	      30.7510
       2.0600	      26.8760
       2.0700	      29.2510
       2.0800	      27.2510
       2.0900	      28.7510
       2.1000	      24.1260
       2.1100	      25.7510
       2.1200	      22.5010
       2.1300	      26.7510
       2.1400	      25.0010
       2.1500	      24.2510
       2.1600	      22.6260
       2.1700	      20.6250
       2.1800	      21.7500
       2.1900	      20.1250
       2.2000	      22.7510
       2.2100	      21.2500
       2.2200	      18.8750
       2.2300	      23.1260
       2.2400	      20.6250
       2.2500	      22.8760
       2.2600	      16.0000
       2.2700	      17.0000
       2.2800	      18.3750
       2.2900	      17.0000
       2.3000	      18.1250
       2.3100	      16.5000
       2.3200	      15.3750
       2.3300	      17.1250
       2.3400	      19.2500
       2.3500	      14.0000
       2.3600	      16.2500
       2.3700	      14.6250
       2.3800	      15.0000
       2.3900	      14.8750
       2.4000	      13.6250
       2.4100	      14.3750
       2.4200	      14.0000
       2.4300	      12.2500
       2.4400	      12.1250
       2.4500	      12.6250
       2.4600	      13.2500
       2.4700	      11.2500
       2.4800	      12.0000
       2.4900	      11.2500
       2.5000	      12.6250
       2.5100	      13.7500
       2.5200	      13.2500
       2.5300	      11.8750
       2.5400	      12.6250
       2.5500	      12.1250
       2.5600	      10.0000
       2.5700	       9.1250
       2.5800	      12.1250
       2.5900	       9.5000
       2.6000	      10.5000
       2.6100	       8.7500
       2.6200	      10.7500
       2.6300	       9.6250
       2.6400	       8.2500
       2.6500	      11.5000
       2.6600	      10.2500
       2.6700	       8.6250
       2.6800	       9.2500
       2.6900	       8.0000
       2.7000	       7.8750
       2.7100	      10.0000
       2.7200	       9.3750
       2.7300	       9.2500
       2.7400	       8.3750
       2.7500	       8.0000
       2.7600	       7.8750
       2.7700	      11.1250
       2.7800	       8.1250
       2.7900	       7.1250
       2.8000	       9.1250
       2.8100	       7.1250
       2.8200	       8.0000
       2.8300	       8.7500
       2.8400	       6.8750
       2.8500	       6.6250
       2.8600	       8.7500
       2.8700	       6.7500
       2.8800	       5.6250
       2.8900	       7.5000
       2.9000	       7.7500
       2.9100	       6.2500
       2.9200	       6.6250
       2.9300	       5.8750
       2.9400	       7.1250
       2.9500	       6.7500
       2.9600	       6.7500
       2.9700	       7.3750
       2.9800	       7.7500
       2.9900	       7.6250
       3.0000	       6.5000
       3.0100	       6.0000
       3.0200	       6.7500
       3.0300	       7.7500
       3.0400	       6.1250
       3.0500	       6.8750
       3.0600	       6.2500
       3.0700	       9.6250
       3.0800	       6.7500
       3.0900	       7.0000
       3.1000	       6.8750
       3.1100	       6.6250
       3.1200	       4.1250
       3.1300	       7.7500
       3.1400	       8.0000
       3.1500	       6.0000
       3.1600	       5.2500
       3.1700	       4.8750
       3.1800	       6.3750
       3.1900	       5.5000
       3.2000	       5.1250
       3.2100	       5.1250
       3.2200	       5.3750
       3.2300	       6.2500
       3.2400	       5.7500
       3.2500	       6.3750
       3.2600	       4.7500
       3.2700	       5.3750
       3.2800	       7.3750
       3.2900	       6.5000
       3.3000	       5.7500
       3.3100	       4.7500
       3.3200	       5.5000
       3.3300	       5.6250
       3.3400	       6.1250
       3.3500	       5.1250
       3.3600	       6.0000
       3.3700	       5.6250
       3.3800	       6.2500
       3.3900	       7.2500
       3.4000	       5.1250
       3.4100	       4.8750
       3.4200	       4.5000
       3.4300	       7.3750
       3.4400	       6.3750
       3.4500	       4.8750
       3.4600	       4.8750
       3.4700	       4.1250
       3.4800	       5.7500
       3.4900	       6.3750
       3.5000	       4.7500
       3.5100	       5.6250
       3.5200	       4.5000
       3.5300	       4.6250
       3.5400	       4.3750
       3.5500	       5.5000
       3.5600	       6.0000
       3.5700	       4.7500
       3.5800	       6.0000
       3.5900	       6.0000
       3.6000	       5.3750
       3.6100	       4.0000
       3.6200	       5.3750
       3.6300	       6.2500
       3.6400	       3.7500
       3.6500	       6.6250
       3.6600	       5.5000
       3.6700	       6.2500
       3.6800	       5.2500
       3.6900	       4.1250
       3.7000	       5.0000
       3.7100	       5.1250
       3.7200	       4.6250
       3.7300	       4.3750
       3.7400	       3.8750
       3.7500	       5.6250
       3.7600	       5.2500
       3.7700	       5.8750
       3.7800	       4.3750
       3.7900	       4.8750
       3.8000	       4.8750
       3.8100	       6.1250
       3.8200	       4.8750
       3.8300	       5.5000
       3.8400	       3.8750
       3.8500	       4.2500
       3.8600	       4.8750
       3.8700	       4.3750
       3.8800	       4.5000
       3.8900	       3.5000
       3.9000	       4.5000
       3.9100	       4.2500
       3.9200	       4.1250
       3.9300	       5.3750
       3.9400	       3.6250
       3.9500	       4.5000
       3.9600	       4.8750
       3.9700	       4.3750
       3.9800	       5.2500
       3.9900	       3.5000
       4.0000	       4.0000
